929
924
927
929
933
933
933
927
927
927
933
934
935
931
933
940
940
942
938
936
933
938
944
948
949
945
944
945
948
949
951
947
950
954
956
959
960
957
956
958
960
963
965
964
963
965
968
968
965
960
959
961
964
964
957
955
951
949
950
946
937
932
927
927
930
929
925
920
916
913
913
914
909
907
907
907
910
913
907
904
902
903
901
905
907
902
905
907
907
908
905
902
901
905
909
907
907
903
903
903
905
907
907
906
908
910
909
910
907
904
906
909
912
915
915
912
909
907
914
911
913
909
906
909
910
913
913
913
908
910
913
908
910
910
911
913
917
920
918
918
920
927
927
935
936
934
937
941
945
951
952
954
955
958
959
960
957
954
950
944
944
938
932
921
914
912
914
912
908
901
898
900
902
902
899
898
896
899
899
897
895
894
894
895
899
900
900
899
897
899
903
905
905
905
906
910
916
921
925
931
945
975
1017
1070
1126
1180
1227
1264
1269
1228
1149
1056
979
930
912
912
909
906
904
908
916
916
913
911
911
916
916
920
916
912
910
911
915
915
915
914
918
919
920
923
918
917
916
919
923
920
925
925
925
926
928
925
925
924
921
928
933
934
933
933
927
928
931
935
933
932
935
938
941
941
941
938
937
941
944
949
950
948
948
949
953
951
952
948
952
954
959
960
958
957
959
957
960
961
959
959
956
960
964
965
962
957
949
953
953
954
950
945
941
939
942
942
937
931
926
924
926
925
925
919
918
920
921
919
916
911
910
912
917
917
917
913
914
915
914
916
915
913
910
916
920
920
917
918
916
916
920
919
918
915
919
921
926
927
923
920
918
919
918
922
921
922
922
923
925
926
920
918
916
919
920
926
924
923
921
920
922
922
919
914
914
920
924
924
925
923
924
927
933
936
938
939
938
948
952
955
958
958
958
964
972
976
976
972
970
973
973
974
968
956
953
948
943
940
936
931
928
927
929
926
924
921
920
925
925
926
922
922
917
917
920
922
923
920
922
922
924
927
923
923
920
922
930
935
934
937
943
956
975
1008
1048
1098
1155
1219
1275
1308
1303
1250
1163
1071
994
948
932
928
931
935
942
947
949
943
941
942
945
948
948
944
943
940
943
944
942
942
942
946
952
953
950
949
946
950
956
957
960
958
959
962
964
962
959
954
957
959
966
968
969
967
969
971
974
977
973
973
971
977
985
988
987
987
986
989
990
993
996
997
996
999
1000
1003
1005
1003
1002
1006
1009
1013
1010
1009
1008
1007
1009
1008
1007
1004
1004
1003
1008
1007
1003
997
993
993
992
990
988
983
982
981
981
975
969
963
959
960
963
961
962
957
958
958
956
956
955
953
956
956
959
959
960
957
952
951
955
958
958
955
955
957
962
962
960
955
954
956
958
961
958
958
955
953
955
952
953
955
954
959
962
962
961
955
956
956
961
963
960
959
960
963
964
964
964
957
957
959
965
967
965
962
963
960
962
963
966
966
971
978
984
988
986
983
984
988
994
999
1005
1007
1010
1013
1015
1009
1004
1001
995
995
995
991
982
972
965
962
959
960
957
953
949
955
956
955
954
948
944
945
946
950
949
946
946
948
950
952
945
946
943
945
952
952
952
954
954
956
963
971
983
998
1034
1079
1138
1198
1255
1302
1333
1323
1273
1196
1105
1025
973
951
947
947
947
948
953
958
961
965
963
960
957
957
958
956
954
952
954
957
959
962
960
958
955
958
957
958
958
958
960
962
965
967
964
962
960
957
962
968
965
964
966
967
970
969
967
965
965
967
972
975
974
970
970
970
972
974
975
977
979
982
983
986
983
980
984
985
992
995
993
990
993
994
994
992
991
990
990
992
996
997
993
990
986
983
981
985
977
974
971
967
966
961
954
950
947
946
949
951
946
940
935
935
934
937
936
933
930
934
933
931
928
926
926
925
932
938
938
934
930
930
933
933
930
931
934
936
939
939
937
933
934
935
939
942
941
939
939
941
941
945
945
943
941
943
949
951
948
943
941
940
945
948
948
945
941
944
945
945
945
942
940
946
948
950
948
945
948
954
956
962
966
966
965
968
972
980
979
985
989
994
996
996
995
988
984
983
982
976
971
958
952
947
950
950
945
939
936
936
939
940
939
934
933
931
930
931
930
924
927
930
935
936
936
931
933
935
940
943
943
942
946
952
960
975
996
1034
1086
1152
1222
1288
1332
1341
1298
1205
1104
1010
951
931
935
947
958
962
963
956
956
955
958
958
959
954
951
950
952
952
950
951
952
955
959
960
963
959
958
960
960
963
967
965
968
965
970
973
969
967
964
968
969
972
972
974
971
973
974
977
977
978
975
980
986
987
988
984
984
986
992
997
996
994
997
1000
1001
1002
1003
1001
1003
1006
1010
1012
1014
1007
1003
1004
1006
1008
1006
1007
1006
1006
1005
1007
999
994
990
990
987
988
984
975
971
966
968
970
964
961
960
962
964
962
961
953
949
953
955
958
957
956
955
956
956
957
953
955
954
958
960
961
959
956
954
955
958
954
955
957
958
959
957
957
955
949
949
952
956
958
959
955
952
951
953
954
951
950
948
950
952
952
950
944
940
944
948
951
949
949
947
947
948
949
946
943
944
946
949
951
952
948
943
949
952
958
964
968
971
974
977
981
981
982
985
992
999
1010
1008
1003
1001
1001
1002
1003
999
993
988
982
977
969
962
954
944
945
947
949
948
945
939
941
940
940
938
934
933
933
938
942
939
935
935
934
942
947
947
947
945
948
952
956
960
967
982
1017
1061
1119
1180
1245
1298
1333
1320
1252
1148
1045
970
934
931
947
959
962
959
959
962
963
960
954
950
952
951
954
953
951
953
953
959
957
953
951
954
957
959
960
961
958
959
960
961
964
963
961
958
963
970
972
969
966
967
966
969
974
974
974
972
974
975
977
976
979
977
983
988
992
992
989
989
990
991
999
998
999
999
999
1005
1006
1002
1002
1004
1006
1011
1015
1014
1010
1009
1008
1010
1010
1006
1002
999
997
997
993
985
980
975
974
974
974
973
967
966
963
964
962
959
954
954
954
958
961
958
953
951
952
958
959
960
958
956
954
958
958
958
954
957
960
961
963
961
957
957
959
962
965
963
963
960
963
964
964
963
963
962
962
970
970
970
966
959
962
964
965
964
966
964
967
965
967
962
960
960
963
966
968
965
959
956
956
960
963
963
960
961
963
964
965
965
964
968
972
980
986
985
987
986
987
994
1001
1005
1009
1010
1015
1016
1016
1014
1007
1003
1003
999
996
986
974
970
966
966
966
959
955
956
956
960
962
957
951
947
946
951
953
951
950
949
947
948
952
951
950
953
955
960
965
964
963
966
981
1003
1035
1075
1125
1182
1243
1300
1330
1318
1257
1170
1077
1005
964
951
951
955
960
968
969
968
967
966
967
967
967
967
961
959
961
964
968
968
967
967
963
971
971
969
970
965
969
971
974
974
972
972
973
978
982
980
978
979
981
985
985
984
983
982
985
990
993
993
993
989
992
994
998
999
998
998
1002
1006
1008
1006
1004
1002
1005
1010
1012
1013
1012
1012
1013
1014
1014
1013
1013
1009
1013
1013
1015
1015
1013
1008
1008
1009
1010
1004
998
995
994
993
991
985
980
977
975
977
977
974
969
965
962
965
968
962
960
960
960
961
962
960
956
953
956
957
959
960
953
953
955
955
956
956
952
955
956
961
963
964
962
958
952
959
962
961
959
955
960
962
963
959
957
953
953
960
962
960
957
956
954
956
957
954
953
949
952
956
958
955
950
948
950
947
950
951
951
949
949
949
948
947
943
943
945
948
951
947
945
942
945
948
955
959
958
961
963
970
972
971
969
970
978
988
994
993
992
991
987
989
989
984
978
973
968
963
960
952
945
940
936
937
935
932
930
928
928
931
930
927
922
919
918
923
925
924
921
917
919
921
926
925
923
923
924
927
931
935
935
940
950
968
995
1033
1086
1141
1198
1249
1281
1269
1212
1127
1043
981
950
935
927
920
917
920
930
935
933
928
927
932
940
934
932
928
927
929
933
933
931
930
933
936
941
934
932
929
932
937
942
944
942
941
940
940
943
944
939
940
944
944
951
948
942
942
943
946
952
953
952
952
952
954
960
961
955
955
956
958
963
965
962
963
966
969
970
968
963
963
969
972
979
978
976
974
972
973
977
974
974
974
976
982
982
978
974
969
967
971
971
968
966
961
961
961
957
951
943
939
939
942
944
940
936
933
931
933
933
932
928
923
929
929
933
931
929
925
927
928
929
927
928
925
928
933
935
933
930
927
931
933
935
934
932
931
931
933
937
935
931
930
928
935
941
939
935
936
933
934
934
936
931
930
934
936
938
935
932
928
930
933
936
937
935
934
936
938
942
937
933
933
935
941
944
946
949
947
953
956
959
961
958
959
967
970
980
983
985
984
983
984
986
980
977
976
976
972
970
964
948
939
938
934
937
936
931
929
925
926
929
924
919
921
921
924
926
926
922
919
918
919
923
921
920
921
925
930
934
935
931
929
934
940
949
961
985
1018
1067
1127
1183
1239
1281
1304
1296
1250
1176
1084
1003
951
933
932
935
935
931
938
941
946
946
943
936
932
930
934
937
937
934
935
935
934
942
939
934
934
934
938
946
946
943
941
941
939
943
945
941
944
946
951
955
952
951
948
949
950
954
953
950
954
957
961
963
964
959
961
961
963
971
971
973
972
974
975
978
978
977
977
980
983
990
986
986
984
986
986
990
989
988
986
988
993
995
993
989
985
986
986
986
985
983
978
979
975
976
969
964
960
957
961
959
957
954
952
950
950
950
947
943
941
942
950
948
946
944
938
940
941
943
944
941
941
944
946
945
943
939
938
940
942
944
947
948
944
945
945
948
949
947
944
945
949
955
951
950
948
948
949
949
949
948
944
950
953
951
951
950
949
945
949
951
945
949
949
951
951
951
951
946
946
946
954
956
957
955
958
963
965
968
968
967
968
975
981
987
988
990
992
990
996
996
997
996
993
992
993
991
984
969
960
954
951
952
947
945
940
940
941
940
936
932
931
932
935
938
937
936
932
931
931
931
927
925
922
925
932
935
935
933
928
929
932
938
937
941
951
964
985
1010
1048
1093
1144
1204
1266
1318
1340
1318
1256
1169
1078
1002
952
927
927
936
947
955
958
950
950
948
948
949
947
946
944
945
946
948
945
944
941
941
942
945
945
946
946
949
950
954
948
946
944
946
950
951
953
952
952
951
955
954
952
953
952
955
959
964
963
960
960
960
964
969
970
970
970
974
979
982
981
978
978
981
986
991
992
991
992
993
997
999
999
994
991
996
1001
1007
1005
1003
1000
1001
1000
1002
1001
998
996
996
999
996
990
982
977
975
974
972
971
966
963
962
957
958
952
949
949
949
952
954
952
949
945
946
944
945
946
942
944
947
949
953
950
944
942
943
943
948
950
948
947
950
951
951
950
946
946
946
951
955
955
954
950
951
951
953
953
948
948
953
955
957
953
946
945
949
947
950
951
949
949
948
948
950
943
939
939
943
946
950
947
945
940
941
943
946
946
945
947
950
958
966
968
966
963
968
971
978
982
985
984
988
994
993
991
987
985
990
992
993
989
978
966
958
953
954
949
946
940
941
942
943
936
933
928
929
932
932
932
932
929
929
929
932
929
929
929
930
934
938
938
935
935
935
940
943
947
951
961
981
1008
1046
1090
1143
1206
1267
1319
1347
1333
1274
1186
1088
1007
953
929
930
941
949
958
963
960
953
947
946
945
948
944
940
942
944
946
949
945
944
942
943
946
950
951
949
947
949
952
950
950
945
946
947
952
953
954
952
954
953
953
956
956
954
953
957
964
967
965
960
961
960
966
968
972
970
971
975
977
979
979
976
974
980
984
990
990
988
991
988
991
994
993
990
993
995
998
1001
1000
999
995
994
994
997
998
996
991
992
994
992
989
978
973
973
971
972
968
962
957
954
959
955
951
945
944
945
946
950
949
946
943
942
941
943
943
940
938
938
943
946
945
942
938
940
940
943
942
944
943
943
943
946
944
940
940
944
944
950
950
947
943
943
946
944
945
945
942
943
950
952
952
947
943
947
950
951
950
951
950
950
951
952
951
945
944
944
946
948
951
949
943
944
946
947
945
942
941
942
945
949
947
944
943
941
943
946
945
944
950
954
961
966
963
961
960
963
972
977
982
984
985
985
988
987
987
986
980
984
982
979
971
959
948
945
941
943
941
938
933
935
934
938
934
930
926
929
930
934
934
933
929
928
929
933
933
931
933
934
939
943
946
943
941
942
952
967
984
1010
1046
1099
1157
1221
1277
1320
1329
1289
1207
1110
1021
959
933
932
938
945
945
947
946
949
951
954
950
947
941
943
943
946
944
945
946
947
950
951
948
944
943
945
949
956
959
955
954
954
957
961
963
960
956
961
964
967
971
966
960
963
967
970
971
972
971
971
975
981
979
979
976
978
985
990
993
991
989
990
994
997
999
996
996
1000
1004
1006
1007
1004
1002
1001
1004
1008
1007
1006
1007
1006
1009
1007
1005
1001
997
996
997
999
997
989
984
980
982
978
975
966
963
964
965
967
962
957
951
950
952
952
950
948
945
945
948
949
948
944
941
942
947
950
951
947
947
949
946
949
948
947
944
945
951
952
951
946
943
941
943
948
948
947
946
949
948
949
948
946
944
941
945
951
947
945
945
943
945
946
944
941
939
941
944
947
947
944
941
937
940
942
946
948
951
957
962
964
965
960
963
966
973
978
984
987
986
988
988
989
984
980
977
974
976
977
971
959
948
943
940
940
942
937
933
935
934
933
932
930
925
926
928
930
931
928
923
925
927
927
928
925
925
928
932
938
940
939
936
938
944
958
975
1002
1045
1100
1165
1224
1278
1307
1296
1249
1164
1076
997
950
937
938
942
940
941
946
950
950
950
952
951
947
942
943
947
950
952
951
949
946
949
952
949
949
950
952
957
961
961
957
955
957
957
962
963
962
963
965
969
971
965
963
963
963
972
974
974
975
970
970
971
977
978
980
979
982
981
986
983
983
981
983
986
990
994
992
991
989
994
993
995
997
994
995
1000
1003
1001
998
993
989
991
992
991
982
977
976
974
973
967
963
960
959
960
961
958
951
945
946
948
950
949
948
943
945
947
947
945
945
943
946
950
951
953
952
947
950
951
953
956
956
952
954
953
955
955
953
953
954
959
959
959
959
955
955
956
960
958
959
956
960
961
965
961
959
958
956
961
965
963
962
958
959
956
960
962
962
965
967
973
981
981
979
981
984
989
998
1004
1007
1008
1009
1012
1012
1010
1008
1006
1004
1006
1005
999
988
975
969
967
966
966
959
960
958
960
964
954
954
948
949
948
952
951
953
951
950
950
950
951
954
951
955
957
964
964
961
960
964
969
981
997
1019
1047
1096
1151
1216
1274
1324
1348
1336
1280
1194
1096
1008
957
942
951
962
968
970
967
970
968
968
967
963
959
954
956
959
961
961
958
959
963
965
959
958
954
957
962
968
966
966
965
966
968
970
972
970
970
973
977
978
978
977
974
977
981
986
985
985
982
982
985
987
988
987
986
987
993
998
995
994
993
992
995
999
1000
1001
1004
1004
1005
1007
1006
1004
1002
1002
1010
1015
1014
1012
1009
1009
1010
1006
1007
1003
1001
997
997
996
993
984
980
978
978
979
978
972
970
967
969
966
964
959
957
960
960
965
961
959
955
954
957
960
960
958
959
959
961
959
960
959
957
958
961
968
965
963
960
960
962
965
965
965
966
967
969
971
967
963
961
961
968
973
973
971
968
966
966
968
965
967
965
964
967
969
967
964
962
964
968
973
976
977
982
989
991
992
993
995
996
1001
1009
1016
1022
1017
1014
1013
1014
1017
1016
1011
1001
992
982
982
972
968
965
962
963
970
964
960
957
957
955
955
955
953
954
954
955
956
956
951
949
951
954
963
960
961
961
962
966
970
975
984
998
1024
1067
1117
1176
1237
1292
1338
1355
1321
1242
1135
1037
973
946
950
961
970
974
979
980
983
979
975
969
967
967
971
974
968
973
974
977
978
974
972
971
974
978
982
983
979
981
981
984
986
985
984
985
987
990
996
994
989
987
983
992
995
995
1000
1000
997
997
1002
999
999
999
1001
1004
1010
1014
1012
1011
1010
1010
1015
1014
1017
1016
1020
1023
1028
1025
1023
1019
1021
1025
1030
1031
1030
1026
1029
1028
1030
1029
1024
1021
1020
1021
1022
1017
1010
1007
1002
1002
999
1000
996
992
990
993
994
991
984
980
978
980
984
984
982
978
979
980
977
979
977
975
974
980
983
983
982
980
977
978
979
980
979
982
982
979
986
986
981
976
977
980
987
986
986
984
982
980
984
985
979
980
979
981
985
984
982
978
979
978
980
981
979
978
980
982
983
985
979
975
977
976
981
985
985
982
982
986
995
998
1001
1003
1008
1011
1016
1021
1019
1020
1023
1030
1037
1038
1041
1036
1036
1038
1034
1030
1022
1011
1003
996
999
993
989
983
981
978
980
980
976
973
971
975
975
975
969
963
966
968
974
985
980
980
982
980
980
985
986
988
987
991
991
989
989
988
990
990
991
995
997
1001
1003
1009
1009
1013
1014
1014
1016
1015
1017
1019
1024
1026
1027
1031
1029
1031
1031
1029
1030
1031
1031
1028
1031
1031
1033
1034
1034
1032
1029
1024
1020
1015
1013
1012
1010
1008
1006
1004
1000
996
994
990
987
986
982
981
976
978
981
980
982
979
979
979
977
975
975
974
975
974
975
976
976
971
972
974
973
972
970
969
971
973
974
974
977
975
975
971
968
966
965
966
968
968
969
970
971
971
969
968
970
968
970
970
972
977
979
982
982
987
987
986
984
983
979
977
977
978
977
979
977
977
977
976
973
970
968
971
970
976
978
982
984
983
980
978
974
972
972
974
975
977
978
979
981
981
979
976
975
973
973
973
976
974
976
978
982
980
981
982
980
981
979
980
979
979
982
985
986
988
986
986
987
987
988
992
1002
1011
1030
1050
1078
1105
1137
1162
1175
1170
1145
1093
1030
973
932
909
900
903
910
919
924
932
933
932
932
932
935
943
948
958
960
962
958
954
949
949
949
953
955
959
964
970
975
979
980
983
984
984
985
984
983
983
986
987
986
983
985
983
985
985
985
987
988
990
991
990
991
988
988
989
986
987
990
989
992
994
994
998
996
997
999
997
994
997
996
1000
1004
1007
1009
1011
1013
1013
1011
1012
1017
1016
1018
1023
1026
1030
1035
1040
1038
1038
1040
1040
1042
1044
1046
1048
1051
1054
1057
1056
1055
1054
1053
1049
1048
1048
1045
1043
1042
1037
1036
1031
1029
1024
1018
1016
1013
1012
1007
1007
1006
1006
1002
1002
1000
997
996
991
990
988
988
987
987
989
989
988
989
987
986
985
984
983
986
985
987
988
988
990
987
986
986
983
981
982
983
984
986
988
989
987
987
986
987
986
988
987
990
989
990
992
994
994
992
993
992
988
988
986
989
990
990
991
991
990
988
986
985
983
983
984
986
985
988
989
991
989
988
987
984
985
982
984
982
983
985
987
987
986
985
984
984
982
980
981
982
983
982
984
984
985
986
980
983
982
982
982
982
983
987
986
989
987
988
987
985
984
978
978
981
981
984
986
989
985
986
984
984
983
983
984
982
986
986
987
988
987
988
987
984
983
981
981
982
982
985
986
988
989
988
987
986
984
984
986
985
988
989
991
991
990
988
987
986
983
983
983
984
983
985
987
988
989
988
989
989
986
985
983
983
986
987
991
991
988
989
985
984
985
983
985
986
986
989
989
989
987
984
985
985
981
979
981
983
984
985
988
990
988
990
987
985
985
983
985
983
985
987
988
988
987
988
985
984
981
981
982
983
986
986
988
990
990
989
989
987
985
985
987
985
985
985
988
987
988
986
987
984
984
984
981
983
983
984
984
984
986
985
985
986
986
986
989
988
988
988
989
991
988
987
988
988
985
984
986
985
985
987
988
989
988
987
989
984
987
987
987
985
988
988
991
990
991
991
990
988
987
985
983
983
982
985
987
989
988
988
988
987
986
984
986
987
989
989
991
994
991
990
989
986
986
984
985
983
986
988
988
988
989
989
988
989
986
986
984
986
988
989
992
993
992
991
993
993
989
985
986
987
990
990
991
992
991
987
987
987
988
986
983
985
983
985
988
989
989
990
990
988
988
987
987
985
986
986
987
988
988
989
986
983
984
981
981
981
982
983
983
986
988
988
986
985
983
984
984
985
984
987
986
986
989
990
988
986
983
982
980
980
982
984
987
989
992
992
990
986
987
984
987
988
989
989
992
991
988
988
986
983
986
983
981
982
982
984
984
988
988
988
988
985
986
981
985
986
986
986
987
987
985
987
986
982
982
980
981
982
981
983
980
982
981
980
982
981
984
983
983
982
984
984
987
988
988
987
986
986
984
981
981
982
982
985
987
985
985
986
983
981
979
980
979
982
981
983
984
987
987
987
987
983
981
984
984
984
988
989
992
990
988
988
985
985
983
981
982
984
986
987
989
990
986
986
988
988
984
982
983
983
985
986
987
987
985
984
983
982
980
980
982
984
986
988
987
986
986
986
987
988
985
986
982
983
983
982
986
988
987
987
986
984
982
982
982
983
984
987
989
988
989
988
988
985
987
986
984
983
982
986
987
988
986
985
982
982
981
981
982
980
984
983
987
988
987
986
985
986
983
982
984
984
982
983
985
986
986
986
987
984
983
981
981
981
982
980
984
986
986
988
988
986
985
984
982
983
985
984
986
988
987
988
985
985
982
979
978
977
980
981
983
986
986
989
987
985
983
981
978
980
984
983
986
986
986
985
984
982
981
981
981
981
983
984
984
985
984
983
983
982
980
983
984
985
986
986
986
985
984
986
984
981
981
980
980
980
981
981
979
982
981
982
983
981
979
978
978
976
979
982
983
984
986
985
981
981
979
979
977
979
981
981
982
983
982
982
983
982
979
981
980
979
981
982
983
983
982
981
982
982
979
975
975
979
977
981
980
981
981
980
982
983
980
979
978
978
980
980
984
987
986
984
984
983
980
979
979
977
977
979
982
984
983
984
980
978
978
978
981
980
982
983
983
984
981
981
981
979
979
980
977
979
980
979
980
979
979
979
976
977
979
978
978
980
979
981
980
983
982
982
984
980
980
981
979
981
980
981
980
983
980
980
979
979
979
979
979
979
980
980
983
983
984
985
983
984
984
981
978
979
978
981
983
983
983
984
984
983
983
980
982
984
984
985
987
986
986
988
987
987
987
987
990
991
993
997
997
999
996
996
994
993
994
995
997
997
997
998
999
997
996
994
992
989
988
985
989
987
989
990
990
991
991
988
983
979
978
976
978
976
976
979
980
980
982
982
982
979
980
980
979
980
980
978
981
984
982
982
981
979
979
979
979
979
980
982
982
985
988
987
989
994
1003
1011
1025
1050
1080
1113
1151
1185
1204
1201
1175
1122
1058
997
951
923
912
908
912
919
926
932
936
934
931
928
929
936
940
949
950
953
949
947
943
943
942
944
950
954
962
968
974
979
982
981
979
979
978
975
977
979
980
977
978
981
983
985
979
980
978
978
977
977
978
980
981
984
984
984
983
983
984
982
986
986
988
988
987
989
988
989
989
990
987
988
987
987
989
994
1000
1002
1004
1008
1008
1005
1008
1010
1011
1012
1017
1020
1023
1026
1025
1027
1028
1026
1028
1028
1028
1030
1034
1036
1040
1042
1041
1040
1040
1037
1035
1033
1033
1032
1032
1029
1029
1027
1024
1021
1014
1012
1011
1006
1004
1002
1002
999
999
1001
998
998
995
993
994
991
989
988
993
995
995
994
994
993
992
991
988
986
987
985
987
987
989
992
990
991
991
990
990
987
988
988
989
991
993
994
994
993
992
993
989
987
990
990
991
991
991
991
991
991
993
993
992
991
993
991
992
996
998
996
993
995
993
991
991
988
989
989
990
990
992
993
991
991
990
990
988
988
987
986
986
989
991
991
989
989
987
986
982
983
983
983
984
987
988
986
986
989
987
986
987
987
988
987
987
987
988
987
989
989
988
987
987
983
983
983
983
986
987
987
986
987
987
987
986
986
986
987
987
989
991
992
990
990
990
987
988
986
984
985
984
986
984
984
987
987
987
982
983
984
985
987
988
989
990
991
991
988
989
987
987
987
986
987
986
985
986
986
987
986
987
985
986
984
986
987
988
990
989
990
989
990
990
987
987
986
987
986
984
986
987
986
986
983
984
987
986
988
987
989
987
989
989
989
989
990
988
987
986
986
986
985
986
983
985
984
986
985
986
986
987
984
986
987
987
988
989
992
992
991
989
985
985
984
986
986
988
988
989
991
990
989
988
987
986
985
984
985
986
986
988
991
989
991
991
988
987
985
985
987
988
989
991
991
990
987
985
984
982
982
983
983
984
986
989
989
987
990
988
987
987
987
986
986
984
986
989
990
987
988
987
984
982
983
983
985
985
987
986
988
988
988
988
987
986
985
984
986
983
987
989
992
993
989
991
985
986
987
985
985
985
987
987
988
987
987
988
987
985
983
984
985
987
987
990
990
991
991
989
988
985
984
984
984
987
987
989
989
988
988
989
991
991
987
987
986
985
989
988
991
992
992
991
990
991
988
987
986
987
988
989
989
990
987
990
990
990
990
991
989
988
989
990
990
990
992
993
990
991
986
986
983
984
987
986
990
988
991
989
990
989
986
986
985
989
989
990
992
991
991
992
992
990
988
987
986
987
985
989
992
992
990
989
987
984
987
991
990
990
992
990
989
991
991
992
991
991
989
987
984
984
986
986
986
991
990
992
993
990
988
986
986
987
986
990
992
991
991
991
990
990
989
988
988
988
987
988
989
989
989
987
988
988
990
990
990
989
989
991
993
991
990
988
991
988
988
986
986
986
987
988
993
991
992
988
991
991
987
988
989
990
990
991
993
993
991
991
991
987
987
986
988
988
989
989
990
988
989
989
986
986
987
990
989
990
990
990
991
993
991
992
992
992
987
987
986
988
987
990
991
990
990
990
986
986
986
989
989
988
990
989
990
989
990
993
991
992
992
989
989
990
989
991
990
991
989
987
990
988
988
989
989
990
994
993
996
994
991
991
988
988
989
989
988
989
991
992
993
994
994
992
991
991
989
991
992
990
994
996
998
996
995
994
995
993
990
992
992
992
991
992
990
992
992
992
993
991
992
990
993
995
996
999
1001
1001
1000
1000
1000
1001
1002
1001
1006
1006
1008
1010
1011
1009
1008
1007
1007
1006
1008
1008
1007
1009
1007
1011
1006
1008
1005
1002
1004
1000
999
999
1002
1001
1002
999
1002
999
1000
999
995
992
990
989
988
988
991
993
992
991
994
990
989
990
988
988
988
989
991
992
992
993
994
994
990
992
991
990
995
994
997
1001
1005
1007
1011
1019
1027
1043
1065
1091
1119
1151
1181
1200
1202
1174
1125
1063
1007
967
940
930
928
929
933
939
947
950
951
947
945
944
945
950
958
965
967
965
961
958
957
956
958
962
965
969
975
978
982
986
990
993
995
995
992
991
987
988
988
988
990
991
994
993
994
994
990
990
992
989
990
994
995
995
997
997
998
997
995
996
996
994
993
993
994
995
1001
1002
1003
1003
1003
1002
1002
1005
1007
1008
1010
1009
1013
1014
1012
1013
1015
1016
1019
1021
1023
1024
1026
1028
1030
1032
1034
1036
1036
1039
1038
1041
1042
1044
1048
1050
1053
1052
1051
1051
1049
1050
1048
1049
1047
1049
1050
1047
1046
1043
1038
1035
1033
1031
1028
1025
1024
1021
1023
1018
1018
1015
1012
1008
1007
1005
1001
1000
999
998
997
999
999
1000
997
996
993
992
992
992
995
993
996
996
997
999
998
996
996
993
993
992
991
993
993
992
994
994
994
992
993
990
989
989
991
992
995
999
998
999
997
997
995
997
996
996
996
996
998
997
998
995
995
995
995
993
991
990
992
994
996
996
999
998
998
995
996
992
993
991
991
992
993
992
996
997
995
994
989
988
986
986
986
988
991
994
994
995
995
993
988
989
990
990
990
992
993
993
995
994
993
992
988
988
988
987
989
989
992
992
995
995
995
995
993
991
988
988
988
991
993
993
995
991
990
991
988
990
989
988
989
992
991
992
995
996
992
993
991
991
990
988
989
991
993
994
996
996
996
991
991
990
990
988
990
990
990
990
990
990
990
993
990
993
991
990
990
990
992
995
995
995
994
994
993
991
990
990
989
988
991
992
992
993
993
993
992
992
991
991
993
993
993
993
996
997
993
991
990
990
989
989
987
992
991
992
991
993
994
993
992
994
992
992
992
991
995
994
996
995
993
994
993
991
992
991
991
990
992
990
992
991
990
987
987
991
989
989
991
992
991
990
992
992
992
994
995
993
991
991
989
989
990
993
994
995
994
994
993
992
989
991
991
992
993
995
994
995
994
994
991
992
993
993
992
993
994
994
994
993
994
994
992
993
991
992
995
996
996
998
999
996
996
993
994
995
993
992
992
993
993
992
991
993
993
993
993
991
990
991
992
992
994
997
998
997
996
995
994
991
991
991
991
992
994
994
996
995
995
994
992
992
992
992
993
992
994
994
997
996
997
997
999
995
994
994
993
992
994
994
996
997
996
995
992
992
991
992
993
994
996
999
998
1001
997
999
997
997
998
996
996
997
998
998
1001
1000
1001
999
999
997
996
994
992
994
995
1002
1003
1002
1002
1000
999
1000
999
998
995
996
997
999
999
1002
1002
1001
999
1001
997
997
997
996
999
1000
999
999
999
999
997
999
997
998
999
1000
1000
1002
1004
1000
999
1002
1000
1000
999
1000
997
996
995
996
998
1000
999
999
1000
1000
1000
999
998
1000
1001
1002
1003
1002
1002
1003
1000
998
1000
998
998
997
998
1001
1000
1001
998
1001
999
1000
998
999
997
997
1000
1002
1006
1007
1005
1004
1002
1001
1000
996
999
1002
1002
1001
1004
1002
1001
998
999
996
997
998
999
999
998
1000
1004
1001
1003
1003
1001
999
999
998
999
998
1000
1000
998
998
1001
998
997
999
998
998
999
999
1000
1000
1001
1001
1001
1001
1004
1000
999
999
999
999
999
1000
1003
1002
1000
999
999
999
997
997
998
999
999
1002
1004
1000
1003
1003
1003
1002
999
998
1000
999
1001
1003
1004
1002
999
1000
998
996
994
995
994
997
999
1001
1003
1004
999
1000
1002
999
1000
999
998
997
998
999
999
1000
998
997
1000
999
998
999
997
998
998
1001
1001
1001
1000
1002
1003
1001
1000
999
999
997
998
1000
1001
1001
1001
1000
999
997
996
997
993
996
995
998
1001
1002
1001
999
998
996
994
996
996
997
997
1000
999
1000
999
999
995
994
994
996
997
996
1000
1001
1000
999
999
998
997
997
998
995
996
997
998
997
998
999
997
999
997
998
994
994
994
997
999
1002
1001
999
1001
1000
999
998
997
997
996
996
997
997
1000
1000
997
998
998
1000
998
997
998
998
999
1000
1002
1000
1003
1001
999
997
998
997
998
999
1001
1003
1005
1008
1010
1011
1011
1012
1012
1010
1012
1013
1016
1018
1020
1022
1021
1023
1023
1022
1022
1020
1020
1018
1023
1021
1020
1019
1018
1018
1017
1016
1015
1016
1014
1014
1016
1016
1018
1018
1016
1012
1010
1009
1005
1006
1007
1007
1008
1009
1010
1010
1009
1008
1008
1007
1003
1005
1003
1003
1003
1008
1009
1011
1009
1010
1011
1008
1007
1009
1008
1012
1012
1016
1018
1017
1021
1025
1031
1043
1058
1083
1113
1143
1176
1198
1206
1191
1144
1087
1027
983
955
942
939
943
950
959
965
967
961
957
952
949
951
962
968
972
977
978
975
971
970
968
969
971
972
975
980
986
992
997
1003
1005
1007
1006
1004
1001
999
996
997
997
999
1001
1000
1002
1003
1005
1000
1000
1002
1001
1002
1004
1003
1005
1007
1007
1006
1006
1004
1002
1002
1000
1002
1000
1004
1004
1007
1009
1011
1008
1010
1009
1005
1006
1008
1011
1014
1017
1020
1020
1020
1021
1023
1024
1023
1023
1025
1027
1029
1032
1036
1039
1041
1045
1044
1045
1046
1047
1050
1052
1055
1057
1059
1059
1060
1059
1058
1059
1057
1054
1055
1053
1054
1052
1052
1052
1053
1050
1046
1045
1041
1038
1035
1033
1031
1027
1027
1022
1021
1020
1016
1013
1010
1007
1006
1003
1002
1005
1003
1004
1003
1003
1002
1002
1000
1002
1002
1004
1002
1003
1005
1004
1004
1001
1002
1000
999
996
997
999
1000
1001
1000
1001
998
997
1001
999
999
1000
1002
1002
1003
1000
1002
1004
1002
1003
1003
1002
999
998
998
998
999
1001
1004
1003
1001
1002
1002
1000
999
999
1000
1000
1001
1001
1004
1005
1005
1002
1003
999
1000
996
996
998
997
998
999
999
998
999
996
997
998
997
997
996
995
998
998
998
999
998
996
995
994
991
991
992
992
994
995
996
998
996
995
993
994
994
993
994
995
997
997
997
995
992
994
993
993
991
990
989
992
990
991
993
992
994
994
996
994
994
995
997
997
997
999
998
997
996
997
995
993
994
993
992
990
992
996
996
996
996
994
996
994
995
994
994
994
994
998
1000
998
998
996
993
991
992
990
990
992
993
994
994
992
995
995
993
993
991
992
992
997
997
1001
999
999
997
996
993
991
993
993
993
995
996
995
997
996
998
996
996
997
995
994
996
998
1000
996
997
998
997
997
997
996
994
998
996
997
996
996
995
998
998
1000
1001
998
998
999
997
998
1000
1000
1001
1001
996
998
996
995
995
999
997
997
996
998
999
999
1001
1000
998
995
996
998
997
999
999
1002
1002
1003
1002
999
997
994
993
994
997
999
998
998
1000
999
1000
999
997
996
997
997
998
1001
998
999
1000
1003
1001
1001
1002
999
996
994
994
994
995
999
1000
998
1001
1000
997
997
997
998
998
999
1001
1002
1003
1006
1004
1002
1000
999
997
997
996
995
996
999
1001
999
1001
996
998
998
997
999
999
998
999
1000
1002
1004
1002
1000
1000
998
998
996
996
999
996
1001
1000
1001
1002
1001
1000
1000
1000
999
998
1000
1002
1003
1003
1002
1002
1001
999
996
998
998
999
996
998
999
999
996
999
995
996
998
998
998
999
998
999
999
1001
998
1000
1001
999
998
998
998
1000
999
999
1001
997
998
998
996
997
998
997
1000
1000
1001
1001
1003
1003
1002
1004
1003
1002
1001
1001
1001
1000
1001
1001
1002
1004
1002
1003
999
998
996
997
999
1000
1001
1003
1003
1004
1004
1002
1003
1001
1001
1000
1000
999
1000
1000
1003
1004
1002
1003
999
1001
999
998
1000
1000
1002
1003
1004
1001
1005
1004
1009
1011
1014
1017
1022
1027
1034
1039
1044
1050
1057
1062
1066
1067
1069
1070
1072
1077
1079
1082
1081
1083
1085
1086
1088
1086
1085
1082
1079
1081
1081
1083
1085
1086
1088
1088
1087
1087
1087
1085
1083
1082
1082
1084
1083
1085
1088
1088
1087
1086
1085
1083
1082
1083
1083
1084
1086
1089
1090
1090
1093
1097
1099
1100
1102
1106
1111
1113
1118
1121
1126
1133
1139
1144
1152
1154
1152
1151
1148
1145
1142
1144
1146
1147
1148
1145
1139
1131
1121
1115
1111
1106
1105
1101
1101
1098
1094
1089
1089
1083
1082
1082
1084
1089
1089
1089
1092
1094
1094
1095
1092
1090
1088
1091
1102
1120
1143
1176
1215
1255
1291
1326
1356
1387
1411
1430
1437
1439
1428
1407
1374
1324
1268
1211
1166
1131
1108
1094
1090
1091
1090
1088
1083
1076
1069
1065
1061
1061
1059
1059
1060
1059
1061
1062
1063
1062
1062
1059
1059
1055
1056
1057
1057
1059
1059
1060
1060
1060
1059
1057
1057
1056
1054
1055
1053
1051
1051
1055
1056
1053
1052
1051
1047
1044
1044
1041
1038
1036
1033
1033
1030
1029
1026
1023
1020
1016
1014
1010
1008
1006
1006
1008
1010
1008
1008
1006
1004
1007
1008
1010
1014
1019
1025
1030
1035
1040
1043
1048
1051
1055
1060
1063
1069
1075
1079
1082
1087
1089
1089
1086
1091
1090
1088
1089
1090
1093
1096
1098
1099
1099
1098
1096
1096
1095
1094
1096
1094
1096
1093
1097
1097
1095
1096
1098
1097
1095
1093
1090
1091
1093
1094
1097
1098
1098
1100
1097
1096
1094
1094
1096
1095
1098
1097
1101
1107
1113
1114
1116
1119
1121
1122
1124
1127
1133
1142
1149
1158
1162
1163
1160
1156
1147
1144
1142
1143
1145
1145
1146
1144
1140
1134
1129
1120
1113
1105
1101
1097
1099
1097
1094
1093
1090
1090
1087
1087
1084
1083
1085
1086
1087
1089
1089
1089
1092
1093
1091
1092
1093
1101
1115
1137
1170
1203
1242
1279
1312
1343
1371
1396
1414
1423
1426
1420
1410
1391
1357
1314
1260
1210
1166
1133
1108
1097
1091
1088
1089
1086
1079
1075
1066
1061
1059
1057
1056
1054
1053
1056
1055
1057
1056
1054
1055
1053
1051
1049
1045
1048
1046
1047
1049
1050
1051
1052
1052
1050
1049
1044
1045
1043
1043
1041
1042
1042
1042
1044
1041
1040
1037
1033
1028
1028
1027
1024
1024
1021
1021
1020
1018
1015
1009
1009
1003
1000
1001
999
999
999
1001
1004
1004
1003
1006
1007
1008
1007
1011
1015
1022
1027
1032
1038
1041
1047
1048
1052
1055
1055
1060
1063
1067
1072
1076
1079
1080
1081
1081
1080
1080
1080
1080
1081
1082
1083
1084
1086
1084
1084
1086
1082
1081
1080
1078
1080
1082
1084
1084
1087
1086
1086
1086
1082
1083
1080
1081
1079
1081
1081
1082
1082
1082
1081
1082
1080
1079
1077
1078
1078
1079
1081
1088
1091
1096
1099
1102
1105
1105
1108
1107
1110
1116
1123
1128
1139
1144
1148
1147
1144
1134
1133
1128
1128
1131
1133
1132
1134
1128
1123
1116
1107
1103
1094
1091
1088
1087
1085
1083
1081
1077
1075
1071
1069
1066
1069
1068
1071
1073
1073
1075
1074
1073
1071
1070
1072
1072
1079
1092
1113
1145
1181
1217
1255
1286
1316
1346
1372
1394
1409
1416
1412
1399
1384
1353
1313
1260
1208
1159
1124
1095
1078
1069
1068
1067
1063
1060
1054
1045
1037
1034
1033
1032
1032
1032
1030
1030
1032
1030
1031
1028
1029
1027
1027
1026
1024
1024
1023
1024
1023
1023
1024
1025
1023
1022
1022
1021
1019
1017
1016
1015
1016
1016
1016
1014
1013
1012
1009
1007
1003
1000
1000
998
994
995
992
991
988
987
983
981
978
975
974
974
972
970
973
972
970
971
971
971
971
972
977
982
986
991
997
998
1005
1006
1011
1014
1018
1021
1025
1030
1034
1036
1043
1044
1046
1046
1046
1044
1042
1044
1041
1043
1046
1045
1048
1045
1042
1044
1042
1043
1042
1042
1042
1042
1044
1044
1044
1044
1044
1043
1039
1039
1038
1036
1039
1038
1040
1040
1040
1039
1039
1037
1036
1034
1033
1036
1036
1040
1040
1045
1047
1050
1055
1055
1056
1060
1060
1060
1065
1069
1076
1084
1090
1096
1099
1095
1090
1082
1077
1077
1076
1078
1079
1080
1080
1074
1069
1060
1050
1044
1038
1033
1030
1027
1028
1025
1024
1021
1020
1018
1015
1013
1013
1013
1008
1012
1013
1014
1017
1017
1017
1014
1015
1018
1028
1043
1068
1103
1141
1183
1221
1255
1288
1317
1338
1355
1357
1348
1331
1303
1262
1208
1151
1099
1058
1029
1011
1002
1001
1001
999
992
988
982
978
974
974
974
973
970
969
967
965
964
964
965
966
964
963
963
959
959
960
958
957
956
960
959
958
958
957
956
955
951
949
946
949
946
948
946
945
942
940
939
937
932
929
928
926
924
922
921
923
920
918
916
912
909
907
906
904
905
905
905
907
908
909
910
910
911
914
916
922
927
932
935
940
944
948
951
955
959
961
961
965
969
972
973
978
977
980
979
977
978
977
978
979
980
982
984
984
986
989
990
994
999
1003
1009
1018
1028
1040
1054
1068
1081
1097
1115
1134
1152
1164
1161
1137
1089
1013
922
831
748
688
642
614
588
569
552
543
540
544
550
560
573
592
610
631
654
674
690
706
723
735
754
774
790
810
828
843
855
863
873
881
893
909
934
960
990
1016
1037
1052
1058
1057
1054
1052
1052
1052
1056
1058
1063
1066
1069
1071
1071
1074
1074
1080
1084
1088
1092
1098
1100
1104
1106
1109
1108
1112
1115
1120
1124
1130
1133
1139
1145
1150
1153
1155
1157
1161
1160
1162
1164
1169
1169
1174
1171
1171
1165
1162
1158
1150
1146
1140
1133
1129
1124
1118
1112
1101
1092
1083
1077
1069
1061
1053
1046
1041
1035
1031
1029
1022
1016
1011
1004
1001
996
992
990
987
984
983
984
981
978
976
974
971
971
971
971
973
969
971
973
972
973
970
968
969
967
968
968
969
970
972
970
973
972
970
964
967
966
965
964
965
967
964
963
962
960
959
960
958
958
955
955
954
955
959
956
959
957
958
957
955
955
956
956
955
956
958
958
954
952
953
955
953
952
952
952
955
953
956
953
954
953
952
949
950
949
948
950
948
951
952
952
951
951
948
947
948
947
949
948
953
955
960
961
966
969
971
975
976
979
979
982
987
991
998
1004
1008
1011
1012
1009
1005
1000
996
997
999
1004
1006
1004
998
992
985
977
970
966
960
958
951
953
949
948
946
942
940
937
936
937
937
938
939
942
940
941
942
942
943
945
947
957
974
1001
1036
1076
1118
1157
1192
1225
1253
1280
1297
1302
1297
1281
1254
1213
1161
1104
1048
1006
979
959
945
940
939
935
928
921
918
913
910
908
905
904
903
901
898
898
899
900
901
901
897
896
895
892
891
894
892
893
895
894
894
890
892
895
892
891
889
888
884
885
886
884
888
884
882
879
874
871
869
864
860
859
855
852
852
847
844
840
837
832
829
828
824
822
824
823
824
823
824
821
821
820
821
825
829
834
842
845
852
859
865
871
875
879
883
890
896
898
909
916
923
927
929
930
930
930
933
932
933
937
938
937
941
941
943
943
940
938
938
937
938
940
944
945
945
947
946
948
946
948
952
954
956
959
964
964
970
967
975
979
982
990
1002
1014
1029
1056
1083
1108
1132
1153
1176
1198
1218
1237
1253
1272
1289
1306
1314
1307
1285
1237
1162
1060
954
857
779
723
698
696
707
728
751
771
787
802
817
832
849
868
887
905
915
918
918
916
914
915
916
916
919
919
921
920
920
921
922
923
925
922
921
921
921
922
922
923
923
921
923
922
923
923
922
920
921
922
923
924
925
927
927
926
926
926
924
924
924
925
928
931
934
938
942
945
947
947
950
951
954
957
959
967
971
978
980
984
986
985
986
985
984
983
982
981
982
984
982
983
980
977
976
971
967
962
961
959
958
957
957
957
955
955
953
952
950
951
952
954
953
955
955
954
955
953
952
951
952
948
950
949
950
951
953
953
956
959
957
960
959
957
957
958
959
958
961
959
961
962
962
961
959
957
955
956
957
955
958
962
959
962
961
958
956
954
955
956
959
960
963
963
962
961
960
958
958
958
958
960
961
961
962
964
964
963
960
959
957
957
959
959
962
966
968
967
969
971
972
973
975
979
982
984
987
989
994
994
998
1005
1011
1015
1023
1028
1029
1024
1021
1020
1022
1024
1023
1025
1023
1019
1012
1004
995
987
981
977
979
974
972
968
964
960
958
956
958
960
962
963
967
966
967
966
965
964
963
961
967
973
990
1013
1049
1089
1130
1172
1209
1242
1272
1301
1323
1336
1338
1328
1307
1267
1212
1146
1081
1028
994
977
966
966
966
964
960
950
944
936
929
926
925
928
928
927
926
923
923
924
923
923
921
919
921
923
924
925
927
925
925
923
919
918
916
914
914
913
913
915
916
915
915
918
917
914
910
907
899
896
892
893
891
892
894
893
886
885
880
874
871
867
864
864
861
859
861
860
860
856
853
853
852
851
851
857
858
860
864
866
870
875
877
882
888
889
897
903
910
918
925
929
932
938
939
943
946
950
953
956
959
960
964
962
961
962
961
960
960
959
958
958
960
956
958
959
959
959
958
961
959
963
963
962
964
964
967
966
962
964
960
961
958
959
960
958
959
961
961
964
966
966
963
964
964
966
969
972
977
980
985
987
987
988
991
989
997
1000
1009
1017
1023
1027
1029
1024
1019
1017
1013
1012
1013
1013
1013
1011
1008
1005
1000
994
988
984
977
971
967
965
963
960
960
955
956
957
958
957
955
954
954
953
955
957
959
961
966
966
971
982
999
1029
1070
1111
1157
1199
1233
1269
1296
1318
1328
1327
1313
1282
1232
1167
1099
1033
993
965
956
955
958
958
955
947
937
930
926
925
926
928
927
927
926
925
924
925
924
923
925
924
925
925
925
924
923
922
919
917
916
916
916
916
917
919
920
921
918
918
914
913
911
910
910
908
907
907
905
904
899
897
892
888
884
882
881
880
879
878
879
878
877
876
874
873
874
880
886
895
905
916
925
932
939
945
951
961
965
970
977
982
985
987
989
987
980
975
967
963
960
957
955
953
952
949
947
946
944
941
939
938
941
940
940
939
941
942
942
940
943
943
943
943
942
941
942
941
943
946
952
959
971
992
1020
1056
1095
1129
1160
1186
1209
1233
1254
1269
1280
1286
1283
1262
1224
1159
1088
1019
967
937
932
933
941
946
948
945
936
926
920
918
919
919
921
923
921
921
919
919
917
919
917
918
916
917
918
918
919
916
913
914
911
908
911
909
909
911
910
911
909
909
908
905
902
896
898
897
896
896
898
896
895
891
888
886
882
878
877
875
873
874
875
875
872
874
872
870
869
869
871
872
876
880
885
888
892
899
900
903
907
911
916
919
923
930
936
938
941
944
946
946
947
947
948
947
951
952
950
952
952
951
950
950
946
944
946
949
950
949
954
954
950
951
949
949
948
949
947
946
947
948
951
952
952
951
951
951
950
948
950
949
949
950
952
952
950
952
952
950
951
952
952
956
959
962
964
968
976
983
992
998
1011
1024
1037
1053
1073
1094
1115
1136
1147
1146
1128
1088
1025
944
853
766
699
646
604
571
538
514
500
494
495
502
516
534
558
580
610
639
664
687
700
708
722
736
757
777
795
807
820
826
834
846
861
881
905
935
965
988
1009
1022
1028
1026
1026
1025
1023
1024
1026
1028
1033
1036
1039
1044
1048
1052
1054
1058
1059
1060
1060
1064
1067
1070
1072
1080
1087
1091
1094
1097
1101
1106
1110
1114
1120
1124
1134
1138
1146
1151
1156
1159
1162
1163
1163
1164
1164
1164
1166
1166
1169
1164
1159
1155
1150
1144
1138
1131
1123
1118
1113
1106
1103
1096
1086
1080
1068
1063
1056
1050
1043
1038
1032
1027
1022
1017
1013
1008
1003
998
994
990
986
987
986
985
984
985
984
983
978
980
978
978
976
978
979
979
980
980
979
979
978
979
977
975
975
974
976
976
977
978
978
977
976
972
973
971
970
970
970
970
975
972
971
972
967
966
965
965
963
963
963
963
965
965
964
964
962
962
961
961
960
958
961
960
959
962
962
965
965
960
960
960
959
959
960
961
960
962
961
962
961
961
959
956
960
956
956
961
963
961
960
961
960
959
959
959
962
960
963
965
969
969
974
975
979
979
983
983
988
991
993
995
1000
1006
1008
1018
1021
1027
1027
1025
1022
1016
1012
1012
1016
1017
1017
1019
1014
1010
1001
994
988
983
981
977
976
974
971
968
964
959
956
955
953
953
955
958
960
961
962
962
961
961
963
966
981
1004
1036
1078
1121
1162
1200
1235
1266
1292
1311
1319
1318
1303
1276
1229
1170
1103
1046
1006
977
964
959
956
955
949
942
938
932
927
925
926
924
924
921
920
919
918
921
918
920
919
920
917
917
916
913
910
911
912
914
915
915
916
914
912
911
908
908
907
908
907
906
903
902
902
900
898
892
888
883
879
877
875
873
870
868
866
859
856
855
852
848
844
841
838
839
841
842
845
844
842
846
846
848
852
855
860
867
874
882
888
895
903
909
915
920
924
930
935
941
946
953
957
957
961
963
964
962
960
960
960
962
965
966
968
967
965
965
969
967
965
967
967
966
970
971
971
972
970
969
969
967
967
963
966
967
968
970
970
969
971
973
976
976
981
983
987
992
996
1001
1002
1002
1003
1007
1011
1015
1021
1025
1029
1031
1029
1022
1022
1022
1019
1019
1020
1022
1017
1012
1009
1004
999
993
989
985
981
978
972
970
965
963
962
959
961
964
964
965
964
966
965
965
963
964
964
966
971
982
997
1020
1052
1088
1127
1162
1194
1226
1255
1282
1305
1315
1316
1304
1285
1251
1204
1146
1086
1038
1002
979
967
966
967
965
961
952
945
939
932
933
933
936
937
938
939
936
935
932
932
929
930
930
931
931
932
931
932
930
931
930
925
925
926
923
924
927
926
927
927
926
925
922
922
917
917
914
912
913
912
911
909
905
901
899
897
894
893
889
889
890
889
891
889
889
888
887
888
888
890
893
894
898
902
907
912
917
923
926
926
929
933
938
941
946
949
958
960
961
960
963
963
960
960
963
963
967
967
971
970
968
969
967
966
965
966
964
964
966
966
967
967
967
969
967
964
965
962
963
965
965
965
966
965
964
966
965
965
962
961
961
962
964
966
969
972
974
978
981
984
987
989
993
994
998
1002
1008
1014
1021
1027
1031
1032
1030
1026
1023
1019
1018
1020
1022
1023
1019
1018
1012
1005
997
991
986
981
981
979
976
974
969
964
966
962
960
960
959
962
964
967
967
967
969
969
968
969
970
975
986
1005
1034
1069
1108
1149
1185
1218
1248
1274
1296
1308
1312
1306
1293
1267
1230
1177
1121
1069
1027
998
980
967
967
965
964
960
955
946
940
937
935
934
931
931
934
934
933
934
932
933
932
929
928
929
926
929
927
927
928
928
930
931
929
928
925
922
921
922
922
923
922
925
924
924
920
918
917
914
910
908
906
906
904
903
900
899
896
892
888
885
885
881
880
880
880
878
879
878
877
881
881
880
881
882
886
890
896
900
906
910
914
918
924
928
930
932
941
941
949
954
958
962
962
966
967
965
966
965
967
966
968
969
971
972
972
971
970
967
967
965
967
968
969
970
972
973
973
971
970
972
970
969
970
970
971
971
973
972
972
972
972
971
968
967
965
968
971
974
978
979
980
984
987
990
992
996
998
1001
1004
1006
1014
1019
1027
1034
1038
1034
1029
1025
1020
1018
1021
1022
1026
1026
1021
1018
1011
1004
999
991
987
984
982
981
979
973
970
969
966
963
962
960
963
964
964
966
970
969
969
968
965
970
971
977
993
1014
1046
1084
1125
1163
1194
1228
1255
1282
1300
1312
1314
1305
1291
1263
1221
1169
1113
1062
1020
993
976
969
968
966
965
962
955
947
941
940
936
933
934
934
935
936
936
938
938
938
936
938
935
933
934
933
932
934
934
934
934
935
934
934
931
929
927
923
923
923
923
924
927
924
921
919
918
915
914
912
906
909
908
906
905
904
901
897
895
893
890
885
885
885
887
887
887
891
893
893
894
897
900
907
908
914
919
925
932
936
942
947
951
953
956
957
962
964
967
969
972
972
975
975
974
973
972
971
970
969
971
974
975
977
976
974
975
975
974
974
974
974
974
974
975
975
975
976
974
975
971
971
972
970
972
972
974
975
975
977
976
979
979
980
983
986
989
995
999
1002
1006
1006
1006
1012
1016
1019
1025
1032
1035
1039
1037
1033
1029
1026
1024
1027
1024
1023
1026
1022
1017
1007
1002
997
992
990
985
981
978
973
971
970
970
968
970
970
969
971
968
966
966
966
968
970
972
974
975
979
990
1004
1027
1055
1091
1130
1165
1194
1225
1252
1281
1301
1315
1318
1310
1293
1264
1222
1169
1112
1063
1025
998
981
974
970
969
964
956
948
942
940
937
938
938
942
939
939
937
935
932
930
929
930
931
930
932
934
933
935
933
931
929
927
926
927
926
925
926
928
929
927
927
921
921
920
917
918
918
915
914
912
910
909
905
901
899
896
894
891
891
889
886
886
883
882
879
878
876
876
875
878
879
882
886
892
894
899
902
905
908
913
917
923
928
933
940
944
949
954
956
959
961
959
961
960
963
965
967
968
966
965
962
965
966
966
966
966
967
968
969
971
970
970
969
970
969
968
967
968
968
967
968
969
968
970
970
968
967
966
965
966
966
971
974
975
976
981
982
985
989
994
996
1000
1000
1006
1011
1017
1023
1029
1034
1034
1032
1025
1021
1018
1020
1020
1023
1025
1022
1017
1012
1003
996
990
984
981
981
975
974
974
968
966
961
960
960
960
962
961
965
966
964
965
967
968
968
967
969
974
985
1002
1031
1066
1108
1145
1180
1212
1244
1271
1292
1307
1307
1299
1281
1253
1213
1160
1105
1057
1017
989
969
963
960
960
959
955
951
944
940
936
934
933
932
932
932
931
930
931
928
931
928
930
930
925
927
927
925
924
926
927
928
930
929
927
927
925
924
920
922
918
918
921
920
919
916
915
913
909
904
904
900
900
899
897
896
896
894
890
887
886
883
880
879
881
879
880
882
885
887
888
890
891
894
897
902
907
914
921
923
930
935
941
941
947
948
953
955
957
959
